# Density profile calculated from 'etidocaine_POPC_CHARMM_298K_Cl_countra_140mM_20000waters_paramchem_skip10_b2000.xtc'
# Density profile of 'resname ETI'
# Density centered around 'resname POPC'

# Beginning time: 2000.0 ns 
# End time: 3313.0 ns 
# Time Step: 1.0 ns 

# Analyzed by R Nencini, ricky.nencini@helsinki.fi / nencini.ricky@gmail.com 
# Analyzed on '2021-11-29'

 -5.3770  1.58455984
 -5.2562  1.52563336
 -5.1354  1.54714735
 -5.0145  1.52685505
 -4.8937  1.52659383
 -4.7729  1.47214532
 -4.6520  1.43700628
 -4.5312  1.37315657
 -4.4104  1.30111319
 -4.2895  1.24827404
 -4.1687  1.19481924
 -4.0479  1.14363897
 -3.9271  1.06425177
 -3.8062  0.97414496
 -3.6854  0.91928606
 -3.5646  0.87288834
 -3.4437  0.79844861
 -3.3229  0.71264447
 -3.2021  0.65474523
 -3.0812  0.57213185
 -2.9604  0.50976993
 -2.8396  0.45601857
 -2.7187  0.39682761
 -2.5979  0.37743520
 -2.4771  0.43290425
 -2.3562  0.63594613
 -2.2354  1.04545047
 -2.1146  1.85046164
 -1.9937  3.11210294
 -1.8729  4.82719940
 -1.7521  6.88613599
 -1.6312  8.90274100
 -1.5104  10.69411627
 -1.3896  11.72946520
 -1.2687  11.77905815
 -1.1479  10.74290076
 -1.0271  8.84261208
 -0.9062  6.56570312
 -0.7854  4.30923756
 -0.6646  2.53790838
 -0.5437  1.27004311
 -0.4229  0.55852773
 -0.3021  0.22053252
 -0.1812  0.07497605
 -0.0604  0.02718442
  0.0604  0.03501363
  0.1812  0.09794473
  0.3021  0.28677680
  0.4229  0.74256836
  0.5437  1.65075708
  0.6646  3.20260979
  0.7854  5.39509200
  0.9062  7.99927504
  1.0271  10.70697307
  1.1479  12.89687758
  1.2687  14.11304073
  1.3896  14.22162346
  1.5104  13.07204680
  1.6312  11.10870192
  1.7521  8.65345615
  1.8729  6.20163384
  1.9937  4.09758748
  2.1146  2.48547734
  2.2354  1.41931328
  2.3562  0.80840224
  2.4771  0.50342972
  2.5979  0.37168116
  2.7187  0.35301219
  2.8396  0.38064875
  2.9604  0.46232103
  3.0812  0.52258504
  3.2021  0.60620176
  3.3229  0.70276097
  3.4437  0.76753204
  3.5646  0.85883036
  3.6854  0.91739400
  3.8062  1.00510531
  3.9271  1.07680368
  4.0479  1.11073781
  4.1687  1.14893160
  4.2895  1.19076518
  4.4104  1.23820259
  4.5312  1.31947629
  4.6520  1.38413046
  4.7729  1.45638490
  4.8937  1.50665697
  5.0145  1.56297064
  5.1354  1.60816211
  5.2562  1.63620488
  5.3770  1.65072117
