# Density profile calculated from 'TPP_POPC_CHARMM36_298K_140mM_20000waters_skip5_b1000.xtc'
# Density profile of 'resname TPA'
# Density centered around 'resname POPC'

# Beginning time: 1000.0 ns 
# End time: 2283.0 ns 
# Time Step: 0.5 ns 

# Analyzed by R Nencini, ricky.nencini@helsinki.fi / nencini.ricky@gmail.com 
# Analyzed on '2021-11-29'

 -5.7173  3.29216786
 -5.5916  3.27526330
 -5.4660  3.27183134
 -5.3403  3.28741661
 -5.2147  3.27951455
 -5.0890  3.26011373
 -4.9634  3.26074990
 -4.8377  3.23430179
 -4.7120  3.20816359
 -4.5864  3.17347206
 -4.4607  3.15208605
 -4.3351  3.13697169
 -4.2094  3.05534566
 -4.0838  2.99962097
 -3.9581  2.92507107
 -3.8325  2.85658623
 -3.7068  2.76017787
 -3.5812  2.67367879
 -3.4555  2.58917489
 -3.3298  2.45767392
 -3.2042  2.27330773
 -3.0785  2.06003744
 -2.9529  1.81081805
 -2.8272  1.53595031
 -2.7016  1.21343364
 -2.5759  0.94381183
 -2.4503  0.79415499
 -2.3246  0.82614326
 -2.1990  1.12329598
 -2.0733  1.77294450
 -1.9476  2.80957630
 -1.8220  4.01512683
 -1.6963  5.10325562
 -1.5707  5.74178216
 -1.4450  5.72083744
 -1.3194  5.09803291
 -1.1937  4.08510956
 -1.0681  2.89838351
 -0.9424  1.82101318
 -0.8168  0.99240521
 -0.6911  0.45676511
 -0.5654  0.17065587
 -0.4398  0.04924867
 -0.3141  0.00946732
 -0.1885  0.00110163
 -0.0628  0.00013798
  0.0628  0.00022770
  0.1885  0.00237725
  0.3141  0.01546241
  0.4398  0.05814317
  0.5654  0.17008608
  0.6911  0.43943946
  0.8168  0.93250150
  0.9424  1.72865322
  1.0681  2.73469599
  1.1937  3.77669050
  1.3194  4.73655884
  1.4450  5.33964910
  1.5707  5.39395230
  1.6963  4.89251484
  1.8220  3.92607071
  1.9476  2.83725108
  2.0733  1.90575515
  2.1990  1.25927648
  2.3246  0.95351729
  2.4503  0.91920114
  2.5759  1.08428463
  2.7016  1.33829427
  2.8272  1.64568981
  2.9529  1.94651863
  3.0785  2.19993857
  3.2042  2.42756604
  3.3298  2.57222123
  3.4555  2.67611246
  3.5812  2.75810765
  3.7068  2.86888899
  3.8325  2.98280209
  3.9581  3.04744290
  4.0838  3.11469787
  4.2094  3.17868099
  4.3351  3.27173173
  4.4607  3.29373149
  4.5864  3.34284605
  4.7120  3.39217877
  4.8377  3.38153553
  4.9634  3.39135581
  5.0890  3.38971594
  5.2147  3.41548810
  5.3403  3.44173128
  5.4660  3.43806915
  5.5916  3.44703895
  5.7173  3.46523351
