# Density profile calculated from 'etidocaine_POPC_CHARMM_298K_Cl_countra_140mM_19900waters_paramchem_ECC_skip4_b600.xtc'
# Density profile of 'resname ETI'
# Density centered around 'resname POPC'

# Beginning time: 600.0 ns 
# End time: 1132.0 ns 
# Time Step: 0.4 ns 

# Analyzed by R Nencini, ricky.nencini@helsinki.fi / nencini.ricky@gmail.com 
# Analyzed on '2021-11-29'

 -5.4879  0.05163717
 -5.3672  0.05006124
 -5.2466  0.05311357
 -5.1260  0.04747764
 -5.0054  0.04494553
 -4.8848  0.04062118
 -4.7642  0.03542781
 -4.6436  0.02896988
 -4.5230  0.02507746
 -4.4023  0.02190690
 -4.2817  0.02050527
 -4.1611  0.01859502
 -4.0405  0.02196675
 -3.9199  0.02128365
 -3.7993  0.02376179
 -3.6787  0.02473832
 -3.5581  0.02565535
 -3.4375  0.02590043
 -3.3168  0.02508713
 -3.1962  0.02937501
 -3.0756  0.02950668
 -2.9550  0.03021413
 -2.8344  0.03944673
 -2.7138  0.05842661
 -2.5932  0.12400610
 -2.4726  0.30581884
 -2.3519  0.71693429
 -2.2313  1.49717426
 -2.1107  2.81987848
 -1.9901  4.89650963
 -1.8695  7.63957881
 -1.7489  10.89911038
 -1.6283  13.96576040
 -1.5077  16.32632506
 -1.3870  17.62396779
 -1.2664  17.52604126
 -1.1458  15.95916443
 -1.0252  13.30445825
 -0.9046  10.03763854
 -0.7840  6.85750429
 -0.6634  4.13881616
 -0.5428  2.20541362
 -0.4221  1.03946782
 -0.3015  0.42348679
 -0.1809  0.15088916
 -0.0603  0.04987122
  0.0603  0.03454244
  0.1809  0.10107684
  0.3015  0.32681112
  0.4221  0.84953541
  0.5428  1.90937556
  0.6634  3.65864793
  0.7840  6.21099436
  0.9046  9.21322212
  1.0252  12.29705116
  1.1458  14.77482063
  1.2664  16.17049367
  1.3870  16.27848458
  1.5077  14.99209643
  1.6283  12.71855950
  1.7489  9.82208968
  1.8695  6.90203978
  1.9901  4.39235146
  2.1107  2.50413732
  2.2313  1.30168428
  2.3519  0.61954813
  2.4726  0.29191797
  2.5932  0.13409048
  2.7138  0.06415400
  2.8344  0.03694541
  2.9550  0.02768114
  3.0756  0.02904237
  3.1962  0.02806818
  3.3168  0.02449963
  3.4375  0.02417073
  3.5581  0.02730354
  3.6787  0.02596849
  3.7993  0.03105336
  3.9199  0.03533023
  4.0405  0.03430952
  4.1611  0.03505807
  4.2817  0.03517754
  4.4023  0.04242131
  4.5230  0.04565090
  4.6436  0.04074666
  4.7642  0.04021705
  4.8848  0.03877269
  5.0054  0.04517285
  5.1260  0.05125744
  5.2466  0.05500759
  5.3672  0.05608033
  5.4879  0.05764547
